Index, Altitude, Velocity, Acceleration, Rawalt, Rawac  
0,1531.52,0.58,10.04,1532.27,10.05,
1,1531.89,1.16,10.18,1532.37,10.32,
2,1532.16,1.76,10.25,1532.65,10.36,
3,1532.40,2.38,10.29,1532.85,10.36,
4,1532.48,2.84,10.31,1532.27,10.37,
5,1532.60,3.32,10.33,1532.46,10.38,
6,1532.66,3.64,10.34,1532.08,10.39,
7,1532.68,3.87,10.36,1531.89,10.40,
8,1532.78,4.20,10.37,1532.27,10.39,
9,1532.95,4.60,10.37,1532.65,10.37,
10,1533.01,4.80,10.37,1532.18,10.38,
11,1533.06,4.94,10.37,1532.08,10.39,
12,1533.09,5.04,10.38,1531.98,10.38,
13,1533.19,5.27,10.38,1532.37,10.37,
14,1533.28,5.48,10.38,1532.37,10.38,
15,1533.31,5.57,10.37,1531.98,10.36,
16,1533.43,5.82,10.37,1532.56,10.38,
17,1533.53,6.03,10.38,1532.46,10.39,
18,1533.60,6.20,10.38,1532.27,10.39,
19,1533.67,6.37,10.38,1532.27,10.37,
20,1533.78,6.60,10.38,1532.56,10.38,
21,1533.87,6.79,10.38,1532.37,10.38,
22,1534.03,7.06,10.38,1532.85,10.38,
23,1534.19,7.34,10.38,1532.94,10.38,
24,1534.30,7.55,10.38,1532.56,10.39,
25,1534.37,7.71,10.38,1532.27,10.38,
26,1534.48,7.91,10.38,1532.46,10.38,
27,1534.60,8.13,10.38,1532.56,10.39,
28,1534.75,8.39,10.38,1532.85,10.38,
29,1534.87,8.60,10.38,1532.56,10.38,
30,1534.94,8.77,10.38,1532.08,10.38,
31,1535.10,9.01,10.38,1532.75,10.39,
32,1535.19,9.20,10.39,1532.18,10.40,
33,1535.24,9.36,10.39,1531.79,10.39,
34,1535.39,9.60,10.38,1532.56,10.38,
35,1535.52,9.82,10.38,1532.37,10.38,
36,1535.66,10.04,10.38,1532.37,10.39,
37,1535.82,10.28,10.39,1532.56,10.39,
38,1536.02,10.55,10.39,1532.94,10.39,
39,1536.25,10.84,10.38,1533.23,10.38,
40,1536.41,11.07,10.38,1532.56,10.38,
41,1536.56,11.29,10.38,1532.27,10.38,
42,1536.70,11.51,10.38,1532.27,10.37,
43,1536.88,11.75,10.38,1532.56,10.38,
44,1537.06,11.99,10.38,1532.56,10.37,
45,1537.23,12.22,10.38,1532.37,10.38,
46,1537.44,12.47,10.38,1532.75,10.38,
47,1537.64,12.72,10.38,1532.65,10.39,
48,1537.84,12.96,10.38,1532.65,10.37,
49,1538.04,13.20,10.38,1532.56,10.38,
50,1538.25,13.45,10.38,1532.65,10.39,
51,1538.51,13.72,10.38,1533.23,10.38,
52,1538.70,13.95,10.38,1532.37,10.38,
53,1538.92,14.19,10.38,1532.56,10.38,
54,1539.12,14.42,10.38,1532.46,10.39,
55,1539.33,14.65,10.38,1532.37,10.37,
56,1539.54,14.89,10.38,1532.37,10.39,
57,1539.76,15.12,10.38,1532.37,10.38,
58,1539.98,15.35,10.38,1532.46,10.38,
59,1540.22,15.59,10.38,1532.56,10.37,
60,1540.47,15.84,10.38,1532.75,10.38,
61,1540.69,16.07,10.38,1532.27,10.38,
62,1540.94,16.31,10.38,1532.65,10.38,
63,1541.21,16.55,10.38,1532.85,10.38,
64,1541.45,16.78,10.38,1532.37,10.37,
65,1541.69,17.01,10.38,1532.37,10.38,
66,1541.99,17.27,10.38,1533.23,10.39,
67,1542.24,17.50,10.38,1532.37,10.39,
68,1542.53,17.74,10.38,1533.04,10.38,
69,1542.78,17.97,10.38,1532.37,10.38,
70,1543.09,18.22,10.38,1533.23,10.39,
71,1543.34,18.44,10.39,1532.27,10.40,
72,1543.59,18.66,10.39,1532.27,10.39,
73,1543.91,18.90,10.39,1533.23,10.39,
74,1544.17,19.13,10.38,1532.37,10.38,
75,1544.43,19.34,10.38,1532.27,10.39,
76,1544.68,19.55,10.38,1531.98,10.38,
77,1544.96,19.77,10.38,1532.37,10.39,
78,1545.24,20.00,10.38,1532.56,10.38,
79,1545.53,20.22,10.38,1532.46,10.38,
80,1545.79,20.42,10.38,1531.98,10.38,
81,1546.07,20.63,10.38,1532.27,10.37,
82,1546.35,20.85,10.38,1532.37,10.38,
83,1546.66,21.07,10.38,1532.65,10.37,
84,1546.96,21.28,10.38,1532.56,10.39,
85,1547.26,21.49,10.38,1532.56,10.38,
86,1547.52,21.69,10.38,1531.89,10.39,
87,1547.80,21.89,10.38,1532.08,10.38,
88,1548.10,22.10,10.38,1532.46,10.39,
89,1548.43,22.31,10.38,1532.94,10.38,
90,1548.75,22.52,10.38,1532.85,10.38,
91,1549.06,22.72,10.38,1532.65,10.38,
92,1549.37,22.92,10.38,1532.56,10.39,
93,1549.70,23.13,10.38,1533.04,10.37,
94,1550.01,23.32,10.38,1532.56,10.39,
95,1550.31,23.51,10.38,1532.56,10.39,
96,1550.60,23.70,10.38,1532.08,10.38,
97,1550.90,23.88,10.38,1532.37,10.39,
98,1551.19,24.06,10.38,1532.27,10.39,
99,1551.51,24.25,10.39,1532.65,10.39,
100,1551.80,24.43,10.39,1532.27,10.40,
101,1552.08,24.60,10.39,1531.98,10.39,
102,1552.38,24.77,10.39,1532.27,10.39,
103,1552.67,24.94,10.39,1532.27,10.38,
104,1552.96,25.11,10.38,1532.08,10.37,
105,1553.29,25.29,10.38,1533.13,10.38,
106,1553.61,25.46,10.38,1532.85,10.38,
107,1553.94,25.63,10.38,1533.13,10.37,
108,1554.23,25.79,10.38,1532.27,10.38,
109,1554.54,25.95,10.38,1532.85,10.38,
110,1554.84,26.11,10.38,1532.65,10.37,
111,1555.17,26.27,10.38,1533.32,10.37,
112,1555.48,26.43,10.38,1532.94,10.38,
113,1555.77,26.57,10.38,1532.37,10.40,
114,1556.05,26.71,10.38,1532.37,10.39,
115,1556.34,26.86,10.38,1532.56,10.38,
116,1556.62,26.99,10.38,1532.27,10.38,
117,1556.89,27.12,10.38,1532.27,10.38,
118,1557.18,27.26,10.38,1532.65,10.36,
119,1557.44,27.38,10.37,1532.08,10.36,
120,1557.73,27.51,10.37,1532.94,10.38,
121,1558.01,27.64,10.38,1532.65,10.38,
122,1558.30,27.77,10.38,1532.85,10.38,
123,1558.57,27.89,10.38,1532.56,10.38,
124,1558.82,28.00,10.38,1532.27,10.39,
125,1559.07,28.11,10.38,1532.27,10.40,
126,1559.31,28.21,10.38,1531.89,10.38,
127,1559.55,28.31,10.38,1532.18,10.39,
128,1559.82,28.42,10.38,1532.85,10.38,
129,1560.07,28.52,10.38,1532.46,10.39,
130,1560.30,28.61,10.38,1531.98,10.38,
131,1560.52,28.70,10.39,1531.98,10.40,
132,1560.75,28.79,10.38,1532.08,10.38,
133,1560.95,28.87,10.39,1531.70,10.39,
134,1561.18,28.96,10.39,1532.37,10.40,
135,1561.40,29.04,10.39,1531.98,10.39,
136,1561.62,29.12,10.39,1532.27,10.39,
137,1561.84,29.20,10.39,1532.37,10.39,
138,1562.06,29.28,10.38,1532.37,10.38,
139,1562.27,29.35,10.39,1532.18,10.39,
140,1562.46,29.42,10.39,1532.08,10.39,
141,1562.69,29.49,10.38,1532.85,10.38,
142,1562.91,29.57,10.38,1532.75,10.38,
143,1563.10,29.63,10.38,1532.08,10.38,
144,1563.29,29.69,10.38,1532.18,10.38,
145,1563.48,29.74,10.38,1532.37,10.38,
146,1563.65,29.80,10.38,1531.98,10.38,
147,1563.82,29.85,10.38,1531.98,10.38,
148,1564.02,29.90,10.38,1532.65,10.38,
149,1564.19,29.95,10.38,1532.18,10.38,
150,1564.38,30.00,10.38,1532.75,10.37,
151,1564.54,30.05,10.38,1532.18,10.39,
152,1564.72,30.09,10.38,1532.75,10.39,
153,1564.89,30.14,10.38,1532.37,10.37,
154,1565.05,30.18,10.38,1532.56,10.38,
155,1565.22,30.22,10.38,1532.65,10.39,
156,1565.37,30.25,10.38,1532.27,10.39,
157,1565.51,30.28,10.38,1532.27,10.38,
158,1565.65,30.31,10.38,1532.27,10.38,
159,1565.81,30.34,10.38,1532.75,10.37,
160,1565.97,30.38,10.38,1533.04,10.37,
161,1566.11,30.41,10.38,1532.65,10.38,
162,1566.24,30.43,10.38,1532.27,10.38,
163,1566.37,30.45,10.38,1532.56,10.39,
164,1566.50,30.47,10.38,1532.46,10.38,
165,1566.61,30.49,10.38,1532.37,10.38,
166,1566.74,30.51,10.38,1532.65,10.38,
167,1566.84,30.52,10.38,1532.18,10.37,
168,1566.97,30.54,10.38,1532.94,10.38,
169,1567.09,30.55,10.38,1532.65,10.38,
170,1567.18,30.56,10.38,1532.18,10.38,
171,1567.29,30.57,10.38,1532.75,10.38,
172,1567.38,30.58,10.38,1532.18,10.38,
173,1567.46,30.58,10.38,1532.18,10.39,
174,1567.54,30.58,10.38,1532.27,10.39,
175,1567.64,30.59,10.38,1532.75,10.37,
176,1567.74,30.60,10.38,1532.85,10.38,
177,1567.82,30.60,10.38,1532.27,10.37,
178,1567.88,30.59,10.38,1532.18,10.37,
179,1567.97,30.59,10.38,1532.65,10.38,
180,1568.05,30.59,10.38,1532.65,10.38,
181,1568.11,30.59,10.38,1532.37,10.38,
182,1568.19,30.59,10.38,1532.65,10.38,
183,1568.26,30.59,10.38,1532.65,10.39,
184,1568.31,30.58,10.38,1532.27,10.39,
185,1568.37,30.57,10.38,1532.46,10.37,
186,1568.42,30.56,10.38,1532.18,10.39,
187,1568.49,30.56,10.38,1532.94,10.40,
188,1568.56,30.55,10.38,1532.94,10.38,
189,1568.61,30.54,10.38,1532.56,10.37,
190,1568.67,30.54,10.38,1532.75,10.37,
191,1568.73,30.53,10.38,1532.94,10.38,
192,1568.76,30.52,10.38,1532.18,10.38,
193,1568.79,30.50,10.38,1532.37,10.39,
194,1568.85,30.49,10.38,1532.94,10.38,
195,1568.91,30.49,10.38,1533.04,10.36,
196,1568.93,30.47,10.38,1532.27,10.39,
197,1568.96,30.46,10.38,1532.56,10.38,
198,1568.98,30.44,10.38,1532.27,10.40,
199,1569.00,30.42,10.38,1532.18,10.39,
200,1569.02,30.40,10.38,1532.37,10.38,
201,1569.03,30.38,10.38,1532.08,10.39,
202,1569.05,30.36,10.38,1532.56,10.37,
203,1569.09,30.35,10.38,1532.85,10.37,
204,1569.10,30.33,10.37,1532.37,10.37,
205,1569.11,30.31,10.38,1532.37,10.39,
206,1569.12,30.29,10.38,1532.18,10.39,
207,1569.11,30.26,10.38,1531.98,10.39,
208,1569.12,30.24,10.38,1532.46,10.38,
209,1569.13,30.22,10.38,1532.27,10.38,
210,1569.15,30.21,10.38,1532.65,10.39,
211,1569.14,30.18,10.38,1531.98,10.38,
212,1569.14,30.16,10.38,1532.46,10.38,
213,1569.13,30.14,10.38,1531.98,10.38,
214,1569.14,30.12,10.38,1532.46,10.38,
215,1569.15,30.10,10.38,1532.56,10.39,
216,1569.15,30.08,10.38,1532.46,10.37,
217,1569.15,30.06,10.38,1532.37,10.39,
218,1569.16,30.05,10.38,1532.65,10.37,
219,1569.17,30.03,10.38,1532.65,10.38,
220,1569.17,30.01,10.38,1532.46,10.39,
221,1569.17,30.00,10.38,1532.65,10.37,
222,1569.17,29.98,10.38,1532.37,10.39,
223,1569.16,29.96,10.38,1532.27,10.40,
224,1569.14,29.93,10.38,1532.08,10.38,
225,1569.13,29.91,10.38,1532.46,10.39,
226,1569.12,29.90,10.39,1532.37,10.39,
227,1569.12,29.88,10.39,1532.56,10.41,
228,1569.11,29.86,10.39,1532.27,10.39,
229,1569.09,29.84,10.38,1532.27,10.37,
230,1569.09,29.82,10.38,1532.46,10.38,
231,1569.07,29.80,10.38,1532.27,10.38,
232,1569.04,29.77,10.38,1531.79,10.39,
233,1569.03,29.76,10.38,1532.46,10.39,
234,1569.01,29.74,10.39,1532.27,10.40,
235,1568.98,29.71,10.39,1531.89,10.38,
236,1568.97,29.70,10.38,1532.37,10.38,
237,1568.96,29.68,10.38,1532.37,10.38,
238,1568.95,29.66,10.38,1532.37,10.38,
239,1568.94,29.65,10.38,1532.65,10.38,
240,1568.93,29.63,10.38,1532.37,10.39,
241,1568.93,29.62,10.38,1532.65,10.39,
242,1568.92,29.61,10.39,1532.46,10.39,
243,1568.90,29.59,10.39,1532.37,10.40,
244,1568.90,29.58,10.39,1532.65,10.39,
245,1568.89,29.57,10.38,1532.65,10.37,
246,1568.89,29.56,10.38,1532.75,10.37,
247,1568.89,29.55,10.38,1532.75,10.38,
248,1568.88,29.53,10.38,1532.56,10.38,
249,1568.88,29.52,10.38,1532.65,10.37,
250,1568.87,29.51,10.38,1532.65,10.39,
251,1568.88,29.51,10.39,1533.04,10.41,
252,1568.88,29.50,10.39,1532.75,10.39,
253,1568.86,29.48,10.38,1532.37,10.38,
254,1568.87,29.47,10.38,1533.04,10.37,
255,1568.85,29.46,10.38,1532.37,10.37,
256,1568.84,29.45,10.38,1532.65,10.38,
257,1568.83,29.44,10.38,1532.65,10.38,
258,1568.82,29.42,10.38,1532.56,10.38,
259,1568.80,29.41,10.38,1532.27,10.37,
260,1568.79,29.40,10.38,1532.65,10.38,
261,1568.79,29.39,10.38,1532.85,10.39,
262,1568.78,29.38,10.38,1532.75,10.38,
263,1568.78,29.37,10.38,1532.75,10.37,
264,1568.77,29.36,10.38,1532.65,10.38,
265,1568.77,29.36,10.38,1532.94,10.38,
266,1568.77,29.35,10.38,1532.85,10.39,
267,1568.75,29.34,10.38,1532.46,10.38,
268,1568.72,29.32,10.37,1532.08,10.37,
269,1568.71,29.31,10.38,1532.75,10.39,
270,1568.70,29.30,10.38,1532.46,10.37,
271,1568.68,29.29,10.38,1532.56,10.38,
272,1568.68,29.28,10.38,1532.85,10.39,
273,1568.66,29.27,10.38,1532.37,10.38,
274,1568.65,29.26,10.38,1532.46,10.39,
275,1568.64,29.25,10.38,1532.75,10.39,
276,1568.65,29.25,10.39,1533.23,10.40,
277,1568.66,29.25,10.39,1532.94,10.40,
278,1568.65,29.24,10.39,1532.75,10.39,
279,1568.65,29.24,10.39,1532.85,10.38,
280,1568.62,29.22,10.38,1532.27,10.38,
281,1568.60,29.21,10.38,1532.37,10.39,
282,1568.59,29.21,10.38,1532.75,10.39,
283,1568.59,29.20,10.38,1532.75,10.38,
284,1568.59,29.20,10.38,1532.85,10.38,
285,1568.57,29.19,10.38,1532.56,10.39,
286,1568.57,29.19,10.38,1532.85,10.38,
287,1568.57,29.18,10.38,1532.94,10.39,
288,1568.56,29.18,10.39,1532.56,10.40,
289,1568.53,29.16,10.39,1532.18,10.39,
290,1568.51,29.15,10.38,1532.27,10.37,
291,1568.47,29.13,10.38,1531.89,10.38,
292,1568.44,29.12,10.38,1532.18,10.38,
293,1568.42,29.11,10.38,1532.27,10.38,
294,1568.40,29.10,10.38,1532.46,10.39,
295,1568.41,29.11,10.38,1533.04,10.39,
296,1568.41,29.10,10.38,1532.85,10.38,
297,1568.41,29.10,10.38,1532.85,10.39,
298,1568.40,29.10,10.38,1532.65,10.38,
299,1568.41,29.10,10.38,1532.94,10.39,
300,1568.40,29.09,10.38,1532.65,10.39,
301,1568.40,29.09,10.38,1532.75,10.39,
302,1568.40,29.09,10.38,1532.94,10.39,
303,1568.39,29.09,10.38,1532.65,10.38,
304,1568.38,29.08,10.38,1532.56,10.38,
305,1568.39,29.08,10.38,1533.04,10.38,
306,1568.39,29.08,10.38,1532.94,10.37,
307,1568.39,29.08,10.38,1532.85,10.37,
308,1568.40,29.08,10.38,1532.94,10.38,
309,1568.40,29.08,10.38,1532.94,10.38,
310,1568.40,29.08,10.38,1532.85,10.38,
311,1568.41,29.08,10.38,1533.04,10.37,
312,1568.38,29.06,10.38,1532.08,10.38,
313,1568.38,29.07,10.38,1533.04,10.38,
314,1568.35,29.05,10.38,1532.08,10.39,
315,1568.36,29.06,10.38,1533.04,10.38,
316,1568.35,29.05,10.38,1532.56,10.38,
317,1568.34,29.04,10.38,1532.46,10.38,
318,1568.30,29.03,10.38,1531.98,10.38,
319,1568.29,29.03,10.38,1532.56,10.38,
320,1568.30,29.03,10.38,1533.13,10.38,
321,1568.32,29.03,10.38,1533.13,10.38,
322,1568.30,29.03,10.38,1532.46,10.39,
323,1568.30,29.03,10.38,1532.85,10.39,
324,1568.28,29.02,10.38,1532.27,10.38,
325,1568.28,29.02,10.38,1532.85,10.37,
326,1568.27,29.01,10.38,1532.37,10.38,
327,1568.26,29.01,10.38,1532.56,10.38,
328,1568.24,29.00,10.38,1532.37,10.38,
329,1568.21,28.99,10.38,1532.08,10.38,
330,1568.20,28.99,10.38,1532.46,10.38,
331,1568.20,28.99,10.38,1532.85,10.37,
332,1568.21,28.99,10.38,1532.94,10.39,
333,1568.19,28.98,10.38,1532.27,10.36,
334,1568.18,28.98,10.38,1532.56,10.38,
335,1568.17,28.98,10.38,1532.56,10.38,
336,1568.16,28.97,10.38,1532.27,10.38,
337,1568.14,28.97,10.38,1532.37,10.39,
338,1568.14,28.97,10.38,1532.65,10.38,
339,1568.12,28.96,10.38,1532.18,10.38,
340,1568.11,28.96,10.38,1532.56,10.37,
341,1568.12,28.96,10.38,1532.94,10.38,
342,1568.12,28.96,10.38,1532.65,10.38,
343,1568.13,28.97,10.38,1532.94,10.39,
344,1568.14,28.97,10.38,1533.04,10.38,
345,1568.15,28.98,10.38,1533.04,10.38,
346,1568.16,28.98,10.38,1532.85,10.38,
347,1568.15,28.98,10.38,1532.65,10.37,
348,1568.12,28.96,10.38,1531.89,10.39,
349,1568.09,28.96,10.38,1532.08,10.39,
350,1568.09,28.96,10.38,1532.65,10.38,
351,1568.08,28.95,10.38,1532.37,10.40,
352,1568.06,28.95,10.38,1532.08,10.39,
353,1568.03,28.94,10.39,1531.98,10.40,
354,1568.01,28.93,10.38,1532.27,10.38,
355,1568.00,28.93,10.38,1532.27,10.39,
356,1567.97,28.92,10.38,1531.79,10.39,
357,1567.94,28.91,10.38,1531.98,10.37,
358,1567.94,28.91,10.38,1532.56,10.39,
359,1567.90,28.90,10.38,1531.70,10.38,
360,1567.88,28.90,10.38,1532.08,10.39,
361,1567.86,28.89,10.38,1532.08,10.40,
362,1567.87,28.90,10.38,1532.75,10.39,
363,1567.87,28.90,10.38,1532.37,10.38,
364,1567.86,28.90,10.38,1532.46,10.38,
365,1567.86,28.90,10.38,1532.37,10.38,
366,1567.85,28.90,10.38,1532.46,10.38,
367,1567.85,28.90,10.38,1532.56,10.39,
368,1567.84,28.90,10.39,1532.27,10.40,
369,1567.82,28.89,10.39,1531.89,10.39,
370,1567.79,28.88,10.39,1531.70,10.39,
371,1567.78,28.88,10.39,1532.37,10.39,
372,1567.78,28.88,10.39,1532.27,10.39,
373,1567.76,28.88,10.39,1532.08,10.39,
374,1567.73,28.87,10.39,1531.70,10.39,
375,1567.72,28.87,10.38,1532.27,10.37,
376,1567.73,28.88,10.38,1532.65,10.38,
377,1567.73,28.88,10.38,1532.27,10.38,
378,1567.73,28.88,10.38,1532.56,10.38,
379,1567.73,28.88,10.38,1532.46,10.38,
380,1567.74,28.89,10.38,1532.65,10.38,
381,1567.74,28.89,10.38,1532.27,10.39,
382,1567.75,28.89,10.38,1532.85,10.38,
383,1567.76,28.90,10.38,1532.65,10.37,
384,1567.78,28.91,10.38,1532.94,10.37,
385,1567.79,28.91,10.38,1532.65,10.38,
386,1567.78,28.91,10.38,1532.27,10.38,
387,1567.78,28.91,10.38,1532.27,10.38,
388,1567.76,28.91,10.38,1532.08,10.39,
389,1567.78,28.91,10.38,1532.85,10.38,
390,1567.79,28.92,10.38,1532.75,10.38,
391,1567.80,28.92,10.38,1532.56,10.39,
392,1567.80,28.93,10.38,1532.56,10.39,
393,1567.80,28.93,10.38,1532.46,10.38,
394,1567.81,28.93,10.38,1532.75,10.37,
395,1567.81,28.93,10.38,1532.46,10.38,
396,1567.82,28.94,10.38,1532.65,10.37,
397,1567.83,28.94,10.38,1532.56,10.39,
398,1567.84,28.94,10.38,1532.65,10.37,
399,1567.84,28.95,10.38,1532.65,10.38,
400,1567.83,28.94,10.38,1532.08,10.37,
401,1567.83,28.95,10.38,1532.56,10.39,
402,1567.83,28.94,10.38,1532.27,10.38,
403,1567.83,28.95,10.38,1532.56,10.37,
404,1567.86,28.96,10.38,1533.13,10.40,
405,1567.85,28.96,10.38,1532.37,10.38,
406,1567.85,28.96,10.38,1532.46,10.38,
407,1567.85,28.96,10.38,1532.37,10.38,
408,1567.86,28.96,10.38,1532.56,10.37,
409,1567.86,28.96,10.38,1532.56,10.38,
410,1567.85,28.96,10.38,1532.27,10.38,
411,1567.87,28.96,10.37,1532.85,10.37,
412,1567.87,28.97,10.38,1532.56,10.38,
413,1567.86,28.96,10.38,1532.27,10.38,
414,1567.84,28.96,10.38,1531.89,10.38,
415,1567.83,28.95,10.38,1532.27,10.39,
416,1567.83,28.95,10.38,1532.27,10.37,
417,1567.82,28.95,10.38,1532.37,10.38,
418,1567.82,28.95,10.38,1532.37,10.38,
419,1567.82,28.95,10.38,1532.46,10.39,
420,1567.82,28.95,10.38,1532.27,10.39,
421,1567.81,28.95,10.38,1532.27,10.38,
422,1567.81,28.95,10.38,1532.37,10.38,
423,1567.80,28.95,10.38,1532.27,10.40,
424,1567.80,28.95,10.38,1532.37,10.39,
425,1567.82,28.96,10.38,1532.85,10.39,
426,1567.82,28.96,10.38,1532.56,10.38,
427,1567.82,28.96,10.38,1532.27,10.38,
428,1567.82,28.96,10.38,1532.37,10.38,
429,1567.83,28.96,10.38,1532.65,10.39,
430,1567.83,28.97,10.38,1532.65,10.39,
431,1567.84,28.97,10.39,1532.56,10.40,
432,1567.85,28.97,10.39,1532.75,10.39,
433,1567.87,28.98,10.39,1532.75,10.39,
434,1567.85,28.97,10.38,1532.08,10.38,
435,1567.88,28.98,10.38,1533.04,10.38,
436,1567.87,28.98,10.38,1532.27,10.39,
437,1567.87,28.98,10.38,1532.37,10.37,
438,1567.88,28.99,10.38,1532.85,10.38,
439,1567.88,28.99,10.38,1532.46,10.37,
440,1567.88,28.98,10.38,1532.27,10.39,
441,1567.88,28.99,10.38,1532.56,10.39,
442,1567.86,28.98,10.38,1531.98,10.39,
443,1567.86,28.98,10.38,1532.37,10.37,
444,1567.86,28.98,10.38,1532.37,10.39,
445,1567.85,28.98,10.38,1532.27,10.37,
446,1567.86,28.98,10.38,1532.75,10.40,
447,1567.87,28.98,10.38,1532.65,10.37,
448,1567.86,28.98,10.38,1532.18,10.38,
449,1567.87,28.98,10.38,1532.56,10.39,
450,1567.86,28.98,10.39,1532.18,10.40,
451,1567.85,28.98,10.38,1532.37,10.38,
452,1567.85,28.98,10.38,1532.37,10.38,
453,1567.85,28.98,10.38,1532.46,10.39,
454,1567.85,28.98,10.38,1532.27,10.37,
455,1567.86,28.98,10.38,1532.75,10.38,
456,1567.86,28.98,10.38,1532.56,10.37,
457,1567.84,28.98,10.38,1531.89,10.37,
458,1567.84,28.98,10.38,1532.37,10.39,
459,1567.84,28.98,10.38,1532.37,10.39,
460,1567.86,28.98,10.38,1532.85,10.37,
461,1567.87,28.99,10.38,1532.75,10.39,
462,1567.87,28.99,10.38,1532.56,10.39,
463,1567.87,28.99,10.38,1532.46,10.39,
464,1567.87,28.99,10.38,1532.37,10.39,
465,1567.88,28.99,10.38,1532.75,10.39,
466,1567.88,28.99,10.38,1532.37,10.38,
467,1567.88,28.99,10.38,1532.46,10.38,
468,1567.89,28.99,10.38,1532.56,10.37,
469,1567.89,29.00,10.38,1532.56,10.39,
470,1567.90,29.00,10.38,1532.56,10.39,
471,1567.92,29.01,10.38,1532.94,10.38,
472,1567.94,29.01,10.38,1533.13,10.38,
473,1567.96,29.02,10.38,1532.85,10.39,
474,1567.98,29.03,10.38,1532.94,10.38,
475,1567.99,29.03,10.39,1532.85,10.40,
476,1567.99,29.03,10.39,1532.46,10.40,
477,1567.99,29.03,10.39,1532.46,10.39,
478,1567.97,29.02,10.39,1531.98,10.39,
479,1567.95,29.02,10.39,1532.18,10.39,
480,1567.93,29.01,10.39,1531.98,10.38,
481,1567.95,29.01,10.38,1532.85,10.37,
482,1567.95,29.02,10.38,1532.56,10.38,
483,1567.95,29.02,10.38,1532.56,10.38,
484,1567.95,29.02,10.38,1532.46,10.38,
485,1567.95,29.01,10.38,1532.27,10.39,
486,1567.95,29.01,10.38,1532.65,10.40,
487,1567.96,29.02,10.39,1532.56,10.40,
488,1567.95,29.02,10.39,1532.46,10.38,
489,1567.96,29.02,10.38,1532.65,10.37,
490,1567.94,29.01,10.38,1531.89,10.38,
491,1567.93,29.01,10.38,1532.37,10.38,
492,1567.94,29.01,10.38,1532.65,10.38,
493,1567.94,29.01,10.38,1532.56,10.37,
494,1567.94,29.01,10.37,1532.46,10.37,
495,1567.94,29.01,10.38,1532.37,10.38,
496,1567.93,29.00,10.38,1532.18,10.40,
497,1567.91,29.00,10.38,1532.08,10.39,
498,1567.91,28.99,10.38,1532.37,10.38,
499,1567.90,28.99,10.38,1532.37,10.39,
500,1567.90,28.99,10.38,1532.27,10.39,
501,1567.90,28.99,10.38,1532.56,10.38,
502,1567.89,28.99,10.38,1532.18,10.39,
503,1567.86,28.98,10.38,1531.70,10.38,
504,1567.85,28.98,10.38,1532.18,10.39,
505,1567.84,28.97,10.38,1532.18,10.38,
506,1567.82,28.97,10.38,1531.98,10.37,
507,1567.80,28.96,10.37,1531.89,10.36,
508,1567.78,28.95,10.37,1531.98,10.37,
509,1567.77,28.95,10.37,1531.98,10.37,
510,1567.76,28.94,10.38,1532.08,10.39,
511,1567.74,28.94,10.38,1531.89,10.38,
512,1567.73,28.94,10.38,1532.18,10.38,
513,1567.72,28.93,10.38,1532.18,10.37,
514,1567.71,28.93,10.37,1532.08,10.37,
